# Small-Angle Scattering Data
# Converted from HDF5 format
#
# Column 1: Q (Å⁻¹)
# Column 2: Intensity (cm⁻¹)
# Column 3: Error (cm⁻¹)
#
#              Q       Intensity           Error
   1.000000e-03    1.000003e+10    3.000009e+08
   1.047452e-03    8.307389e+09    2.492217e+08
   1.097156e-03    6.901250e+09    2.070375e+08
   1.149219e-03    5.733119e+09    1.719936e+08
   1.203752e-03    4.762711e+09    1.428813e+08
   1.260872e-03    3.956557e+09    1.186967e+08
   1.320704e-03    3.286857e+09    9.860570e+07
   1.383374e-03    2.730512e+09    8.191536e+07
   1.449018e-03    2.268336e+09    6.805009e+07
   1.517777e-03    1.884390e+09    5.653170e+07
   1.589799e-03    1.565432e+09    4.696297e+07
   1.665239e-03    1.300462e+09    3.901387e+07
   1.744258e-03    1.080342e+09    3.241026e+07
   1.827027e-03    8.974804e+08    2.692441e+07
   1.913724e-03    7.455705e+08    2.236711e+07
   2.004534e-03    6.193734e+08    1.858120e+07
   2.099654e-03    5.145369e+08    1.543611e+07
   2.199287e-03    4.274454e+08    1.282336e+07
   2.303648e-03    3.550953e+08    1.065286e+07
   2.412961e-03    2.949914e+08    8.849743e+06
   2.527462e-03    2.450610e+08    7.351829e+06
   2.647395e-03    2.035819e+08    6.107458e+06
   2.773020e-03    1.691238e+08    5.073713e+06
   2.904606e-03    1.404981e+08    4.214943e+06
   3.042436e-03    1.167177e+08    3.501531e+06
   3.186807e-03    9.696244e+07    2.908873e+06
   3.338028e-03    8.055102e+07    2.416531e+06
   3.496425e-03    6.691744e+07    2.007523e+06
   3.662338e-03    5.559151e+07    1.667745e+06
   3.836124e-03    4.618263e+07    1.385479e+06
   4.018156e-03    3.836631e+07    1.150989e+06
   4.208827e-03    3.187299e+07    9.561898e+05
   4.408545e-03    2.647874e+07    7.943621e+05
   4.617741e-03    2.199751e+07    6.599252e+05
   4.836863e-03    1.827476e+07    5.482428e+05
   5.066383e-03    1.518211e+07    4.554634e+05
   5.306794e-03    1.261291e+07    3.783874e+05
   5.558613e-03    1.047856e+07    3.143567e+05
   5.822382e-03    8.705442e+06    2.611633e+05
   6.098667e-03    7.232419e+06    2.169726e+05
   6.388062e-03    6.008695e+06    1.802608e+05
   6.691190e-03    4.992070e+06    1.497621e+05
   7.008702e-03    4.147491e+06    1.244247e+05
   7.341280e-03    3.445835e+06    1.033750e+05
   7.689641e-03    2.862911e+06    8.588733e+04
   8.054531e-03    2.378622e+06    7.135867e+04
   8.436737e-03    1.976274e+06    5.928822e+04
   8.837079e-03    1.641997e+06    4.925991e+04
   9.256418e-03    1.364271e+06    4.092814e+04
   9.695656e-03    1.133526e+06    3.400577e+04
   1.015574e-02    9.418106e+05    2.825432e+04
   1.063765e-02    7.825216e+05    2.347565e+04
   1.114243e-02    6.501727e+05    1.950518e+04
   1.167116e-02    5.402067e+05    1.620620e+04
   1.222498e-02    4.488378e+05    1.346513e+04
   1.280509e-02    3.729211e+05    1.118763e+04
   1.341272e-02    3.098438e+05    9.295315e+03
   1.404918e-02    2.574353e+05    7.723060e+03
   1.471585e-02    2.138920e+05    6.416761e+03
   1.541415e-02    1.777154e+05    5.331461e+03
   1.614558e-02    1.476599e+05    4.429796e+03
   1.691173e-02    1.226905e+05    3.680716e+03
   1.771422e-02    1.019471e+05    3.058412e+03
   1.855480e-02    8.471448e+04    2.541434e+03
   1.943527e-02    7.039844e+04    2.111953e+03
   2.035752e-02    5.850504e+04    1.755151e+03
   2.132353e-02    4.862384e+04    1.458715e+03
   2.233538e-02    4.041390e+04    1.212417e+03
   2.339524e-02    3.359200e+04    1.007760e+03
   2.450540e-02    2.792299e+04    8.376897e+02
   2.566823e-02    2.321163e+04    6.963488e+02
   2.688625e-02    1.929584e+04    5.788752e+02
   2.816206e-02    1.604110e+04    4.812329e+02
   2.949841e-02    1.333571e+04    4.000713e+02
   3.089818e-02    1.108694e+04    3.326083e+02
   3.236437e-02    9.217776e+03    2.765333e+02
   3.390013e-02    7.664233e+03    2.299270e+02
   3.550877e-02    6.373146e+03    1.911944e+02
   3.719374e-02    5.300317e+03    1.590095e+02
   3.895866e-02    4.408991e+03    1.322697e+02
   4.080734e-02    3.668589e+03    1.100577e+02
   4.274374e-02    3.053663e+03    9.160990e+01
   4.477202e-02    2.543027e+03    7.629081e+01
   4.689655e-02    2.119042e+03    6.357127e+01
   4.912190e-02    1.767024e+03    5.301073e+01
   5.145285e-02    1.474753e+03    4.424258e+01
   5.389440e-02    1.232063e+03    3.696189e+01
   5.645181e-02    1.030507e+03    3.091520e+01
   5.913057e-02    8.630692e+02    2.589208e+01
   6.193645e-02    7.239288e+02    2.171786e+01
   6.487547e-02    6.082581e+02    1.824774e+01
   6.795396e-02    5.120548e+02    1.536165e+01
   7.117853e-02    4.320007e+02    1.296002e+01
   7.455611e-02    3.653441e+02    1.096032e+01
   7.809396e-02    3.098018e+02    9.294054e+00
   8.179969e-02    2.634790e+02    7.904369e+00
   8.568127e-02    2.248020e+02    6.744059e+00
   8.974704e-02    1.924638e+02    5.773913e+00
   9.400574e-02    1.653785e+02    4.961355e+00
   9.846652e-02    1.426442e+02    4.279327e+00
   1.031390e-01    1.235118e+02    3.705353e+00
   1.080332e-01    1.073590e+02    3.220771e+00
   1.131596e-01    9.366982e+01    2.810095e+00
   1.185292e-01    8.201612e+01    2.460484e+00
   1.241537e-01    7.204345e+01    2.161304e+00
   1.300451e-01    6.345877e+01    1.903763e+00
   1.362160e-01    5.602039e+01    1.680612e+00
   1.426798e-01    4.952968e+01    1.485890e+00
   1.494502e-01    4.382411e+01    1.314723e+00
   1.565420e-01    3.877151e+01    1.163145e+00
   1.639703e-01    3.426525e+01    1.027957e+00
   1.717510e-01    3.022016e+01    9.066048e-01
   1.799010e-01    2.656912e+01    7.970736e-01
   1.884377e-01    2.326006e+01    6.978017e-01
   1.973795e-01    2.025336e+01    6.076009e-01
   2.067456e-01    1.751956e+01    5.255869e-01
   2.165561e-01    1.503722e+01    4.511166e-01
   2.268322e-01    1.279100e+01    3.837300e-01
   2.375959e-01    1.076987e+01    3.230962e-01
   2.488703e-01    8.965489e+00    2.689647e-01
   2.606798e-01    7.370692e+00    2.211208e-01
   2.730496e-01    5.978229e+00    1.793469e-01
   2.860065e-01    4.779716e+00    1.433915e-01
   2.995781e-01    3.764892e+00    1.129468e-01
   3.137938e-01    2.921202e+00    8.763607e-02
   3.286840e-01    2.233744e+00    6.701233e-02
   3.442808e-01    1.685562e+00    5.056687e-02
   3.606177e-01    1.258246e+00    3.774737e-02
   3.777298e-01    9.327464e-01    2.798239e-02
   3.956539e-01    6.903043e-01    2.070913e-02
   4.144285e-01    5.133414e-01    1.540024e-02
   4.340941e-01    3.862076e-01    1.158623e-02
   4.546928e-01    2.956795e-01    8.870384e-03
   4.762690e-01    2.311666e-01    6.934997e-03
   4.988691e-01    1.846363e-01    5.539090e-03
   5.225415e-01    1.503168e-01    4.509503e-03
   5.473373e-01    1.242670e-01    3.728011e-03
   5.733097e-01    1.039115e-01    3.117345e-03
   6.005145e-01    8.761435e-02    2.628431e-03
   6.290102e-01    7.434046e-02    2.230214e-03
   6.588582e-01    6.341558e-02    1.902467e-03
   6.901225e-01    5.437432e-02    1.631230e-03
   7.228703e-01    4.687284e-02    1.406185e-03
   7.571721e-01    4.064251e-02    1.219275e-03
   7.931017e-01    3.546603e-02    1.063981e-03
   8.307361e-01    3.116462e-02    9.349385e-04
   8.701564e-01    2.759020e-02    8.277059e-04
   9.114473e-01    2.461983e-02    7.385948e-04
   9.546975e-01    2.215138e-02    6.645413e-04
   1.000000e+00    2.010000e-02    6.030000e-04
